wavelength
----------
  8298.671
  8344.496
  8352.843
  8364.671
  8382.277
  8399.187
  8415.237
  8430.162
  8452.265
  8465.368
  8493.478
  8504.824
  8548.658
  8761.102
  8767.646
  8777.891
   8791.13
  8827.004
  8836.384
  8849.808
 8867.5625
  8885.865
  8903.135
   8919.65
  8943.413
  8958.099
  8988.331
  9001.355
  9038.059
  9049.554
   9102.79
  9313.188
  9323.424
  9337.854
  9375.859
  9402.077
  9419.902
  9439.652
  9458.529
  9476.859
  9502.819
  9519.355
  9552.536
  9567.334
  9607.726
  9620.965
  9668.698
  9682.015
  9699.334
  9719.834
  9791.015
  9799.627
  9848.482
  9872.139
  9894.745
  9914.673
 10012.979
 10082.472
  10123.99
 10171.884
 10189.708
 10210.933
 10286.529
 10295.993
 10347.317
 10372.879
 10418.362
 10450.502
 10468.963
