wavelength
----------
 6498.6724
 6533.0454
 6553.6265
 6863.8735
 6912.6226
  6923.204
 6939.5513
  6949.085
 6978.4136
 7011.4214
 7276.3037
 7284.4844
 7303.7715
 7316.2905
  7329.217
 7340.9043
  7358.681
 7369.3813
 7392.1885
  7401.859
 7438.5034
 7523.9614
  7530.658
 7571.8364
 7586.0913
 7598.3794
 7618.1016
  7628.608
 7662.3735
  7699.379
 7750.5728
 7759.9565
  7773.361
  7780.445
 7794.0894
 7808.4863
 7821.5005
  7841.266
 7853.3384
 7870.5166
  7889.674
  7913.627
  7921.051
  7931.314
  7949.186
 7964.6733
  7979.427
 7993.3433
 8014.0938
 8025.8604
 8051.8975
  8062.195
  8093.783
 8102.5293
  8288.429
  8298.671
  8344.496
   8352.84
  8399.185
